Freq	L_eff
Hz	m
0.0	0.0
1000000.0	0.00037653224373778
2000000.0	0.00075306448747556
3000000.0	0.00112959673121334
4000000.0	0.00150612897495112
5000000.0	0.0018826612186889002
6000000.0	0.00225919346242668
7000000.0	0.00263572570616446
8000000.0	0.0031004553872711464
9000000.0	0.0037690462834573894
10000000.0	0.004437637179643632
11000000.0	0.0051062280758298745
12000000.0	0.005774818972016118
13000000.0	0.006443409868202361
14000000.0	0.007112000764388604
15000000.0	0.0077805916605748465
16000000.0	0.008449182556761088
17000000.0	0.009117773452947332
18000000.0	0.009786364349133575
19000000.0	0.010454955245319818
20000000.0	0.01112354614150606
21000000.0	0.011792137037692304
22000000.0	0.012460727933878547
23000000.0	0.014069248086862432
24000000.0	0.015842413431707326
25000000.0	0.017615578776552218
26000000.0	0.019388744121397114
27000000.0	0.021161909466242006
28000000.0	0.0229350748110869
29000000.0	0.024708240155931795
30000000.0	0.02648140550077669
31000000.0	0.028254570845621583
32000000.0	0.030027736190466475
33000000.0	0.03180090153531137
34000000.0	0.03357406688015627
35000000.0	0.03534723222500116
36000000.0	0.03795398817050404
37000000.0	0.04337297187136695
38000000.0	0.04879195557222986
39000000.0	0.05421093927309276
40000000.0	0.05962992297395567
41000000.0	0.0644100369041327
42000000.0	0.06915619813253959
43000000.0	0.0739023593609465
44000000.0	0.07864852058935339
45000000.0	0.08595499392100531
46000000.0	0.09449683292832319
47000000.0	0.10303867193564106
48000000.0	0.11158051094295895
49000000.0	0.12034895977306541
50000000.0	0.12949303334254766
51000000.0	0.1386371069120299
52000000.0	0.14778118048151218
53000000.0	0.15692525405099444
54000000.0	0.1660693276204767
55000000.0	0.17554882677708752
56000000.0	0.1856416839199447
57000000.0	0.19573454106280186
58000000.0	0.205827398205659
59000000.0	0.216195739594142
60000000.0	0.23231572385850074
61000000.0	0.24843570812285948
62000000.0	0.2645556923872182
63000000.0	0.2793309445715737
64000000.0	0.2930891024663106
65000000.0	0.3068472603610475
66000000.0	0.3278720589594567
67000000.0	0.3491139566556691
68000000.0	0.37035585435188145
69000000.0	0.39396283563644496
70000000.0	0.42025120772946833
71000000.0	0.44542253640079704
72000000.0	0.4701253336035942
73000000.0	0.5022141414834118
74000000.0	0.5167007345433486
75000000.0	0.5311873276032855
76000000.0	0.5448500480035855
77000000.0	0.5575126732012662
78000000.0	0.5701752983989469
79000000.0	0.5801602625348697
80000000.0	0.5896999765936465
81000000.0	0.5992396906524233
82000000.0	0.6056136274296828
83000000.0	0.6075046873868563
84000000.0	0.6093957473440297
85000000.0	0.6112868073012031
86000000.0	0.6131778672583766
87000000.0	0.6142150903479788
88000000.0	0.6133037714186012
89000000.0	0.6123924524892236
90000000.0	0.611481133559846
91000000.0	0.6102248064297124
92000000.0	0.6039116463972185
93000000.0	0.5975984863647246
94000000.0	0.5912853263322305
95000000.0	0.5841637382420805
96000000.0	0.576547748091907
97000000.0	0.5623254169752108
98000000.0	0.5571684826686414
99000000.0	0.5520115483620721
100000000.0	0.5468546140555027
101000000.0	0.5416305820052508
102000000.0	0.5363911845544976
103000000.0	0.5311517871037446
104000000.0	0.5259123896529914
105000000.0	0.5206729922022382
106000000.0	0.515433594751485
107000000.0	0.5109126229257237
108000000.0	0.5064604263106715
109000000.0	0.5020082296956192
110000000.0	0.497556033080567
111000000.0	0.4931038364655148
112000000.0	0.48865163985046256
113000000.0	0.4841994432354103
114000000.0	0.47777102791745396
115000000.0	0.4670883552570536
116000000.0	0.4564056825966532
117000000.0	0.44572300993625286
118000000.0	0.43959422469085463
119000000.0	0.43360261516360815
120000000.0	0.4276110056363617
121000000.0	0.4216193961091152
122000000.0	0.4156277865818687
123000000.0	0.40963617705462224
124000000.0	0.40364456752737576
125000000.0	0.3956238903903196
126000000.0	0.3844524072932639
127000000.0	0.37328092419620823
128000000.0	0.3656338836139746
129000000.0	0.35845108572865525
130000000.0	0.35126828784333597
131000000.0	0.3414981364763972
132000000.0	0.3293470308252917
133000000.0	0.31802956105553204
134000000.0	0.30685807795847664
135000000.0	0.3031036667458616
136000000.0	0.31356479842222346
137000000.0	0.3240259300985853
138000000.0	0.3337897303664819
139000000.0	0.3433488267770873
140000000.0	0.3534416839199447
141000000.0	0.3635345410628021
142000000.0	0.36783296292577344
143000000.0	0.3650591753969051
144000000.0	0.3622853878680367
145000000.0	0.35951160033916835
146000000.0	0.3567378128103
147000000.0	0.3539640252814316
148000000.0	0.3517524183832216
149000000.0	0.350041764630195
150000000.0	0.34833111087716834
151000000.0	0.34662045712414175
152000000.0	0.3449098033711151
153000000.0	0.3431991496180885
154000000.0	0.34148849586506186
155000000.0	0.3403020946672934
156000000.0	0.33928937293283723
157000000.0	0.338276651198381
158000000.0	0.3372639294639248
159000000.0	0.3362512077294686
160000000.0	0.33523848599501244
161000000.0	0.3342257642605562
162000000.0	0.33324314754677115
163000000.0	0.33248387833666904
164000000.0	0.3317246091265669
165000000.0	0.3309653399164648
166000000.0	0.33020607070636276
167000000.0	0.32944680149626066
168000000.0	0.32868753228615855
169000000.0	0.32792826307605644
170000000.0	0.32643214472462206
171000000.0	0.32414943066969476
172000000.0	0.3218667166147674
173000000.0	0.3195840025598401
174000000.0	0.3173012885049128
175000000.0	0.3155964314295895
176000000.0	0.3147421388056475
177000000.0	0.31388784618170557
178000000.0	0.3130335535577636
179000000.0	0.31217926093382165
180000000.0	0.3113249683098797
181000000.0	0.3104706756859377
182000000.0	0.3096163830619958
183000000.0	0.30876209043805386
184000000.0	0.30790779781411187
185000000.0	0.307460132950589
186000000.0	0.3084069300559227
187000000.0	0.30935372716125636
188000000.0	0.31030052426659005
189000000.0	0.31124732137192374
190000000.0	0.3121941184772574
191000000.0	0.3131409155825911
192000000.0	0.3140877126879248
193000000.0	0.3150345097932585
194000000.0	0.31598130689859216
195000000.0	0.31645245254274695
196000000.0	0.29475909154689584
197000000.0	0.26349605309029284
198000000.0	0.23657817279497081
199000000.0	0.2246232055460625
200000000.0	0.2109517153436817
201000000.0	0.18632297806439702
202000000.0	0.19308374361463618
203000000.0	0.19984450916487537
204000000.0	0.20660527471511453
205000000.0	0.209096352320686
206000000.0	0.2107358560693472
207000000.0	0.2123753598180084
208000000.0	0.2140148635666696
209000000.0	0.21565436731533077
210000000.0	0.21729387106399198
211000000.0	0.21893337481265318
212000000.0	0.22036534489213264
213000000.0	0.22080264372847827
214000000.0	0.2212399425648239
215000000.0	0.22167724140116954
216000000.0	0.22211454023751515
217000000.0	0.22255183907386078
218000000.0	0.22298913791020641
219000000.0	0.22342643674655205
220000000.0	0.22386373558289768
221000000.0	0.2243010344192433
222000000.0	0.22473833325558892
223000000.0	0.2251207729468599
224000000.0	0.2251207729468599
225000000.0	0.2251207729468599
226000000.0	0.2251207729468599
227000000.0	0.2251207729468599
228000000.0	0.2251207729468599
229000000.0	0.2251207729468599
230000000.0	0.2251207729468599
231000000.0	0.22446127549326336
232000000.0	0.22309341489306975
233000000.0	0.22172555429287613
234000000.0	0.22035769369268252
235000000.0	0.2189898330924889
236000000.0	0.2176219724922953
237000000.0	0.2162541118921017
238000000.0	0.21488625129190808
239000000.0	0.21352231391524332
240000000.0	0.2128105468388782
241000000.0	0.21209877976251312
242000000.0	0.21138701268614804
243000000.0	0.21067524560978293
244000000.0	0.20996347853341785
245000000.0	0.20925171145705274
246000000.0	0.20872053633999832
247000000.0	0.20883428613874247
248000000.0	0.20894803593748665
249000000.0	0.2090617857362308
250000000.0	0.20917553553497498
251000000.0	0.20928928533371913
252000000.0	0.20940303513246328
253000000.0	0.20951678493120746
254000000.0	0.2096305347299516
255000000.0	0.21019140076635243
256000000.0	0.21092201090078883
257000000.0	0.21165262103522522
258000000.0	0.21238323116966162
259000000.0	0.21311384130409802
260000000.0	0.21384445143853445
261000000.0	0.21457506157297085
262000000.0	0.21530567170740725
263000000.0	0.21603628184184365
264000000.0	0.21676689197628005
265000000.0	0.21749750211071645
266000000.0	0.21822811224515284
267000000.0	0.21607487978489587
268000000.0	0.2133010922560275
269000000.0	0.21052730472715914
270000000.0	0.20775351719829077
271000000.0	0.2049797296694224
272000000.0	0.20220594214055404
273000000.0	0.19987479415919396
274000000.0	0.19759208010426665
275000000.0	0.19530936604933935
276000000.0	0.19302665199441207
277000000.0	0.19074393793948477
278000000.0	0.18846122388455747
279000000.0	0.18617850982963016
280000000.0	0.18389579577470289
281000000.0	0.18161308171977558
282000000.0	0.17875086106896484
283000000.0	0.17548531912304388
284000000.0	0.17221977717712292
285000000.0	0.16895423523120193
286000000.0	0.16568869328528096
287000000.0	0.16242315133936
288000000.0	0.16050143178395865
289000000.0	0.15923507580618484
290000000.0	0.15796871982841104
291000000.0	0.15670236385063727
292000000.0	0.15543600787286346
293000000.0	0.15416965189508966
294000000.0	0.15290329591731586
295000000.0	0.15171097707370887
296000000.0	0.1521846930452792
297000000.0	0.15265840901684954
298000000.0	0.15313212498841988
299000000.0	0.15360584095999022
300000000.0	0.15407955693156056
301000000.0	0.1545532729031309
302000000.0	0.15502698887470123
303000000.0	0.15550070484627157
304000000.0	0.1559744208178419
305000000.0	0.15644813678941225
306000000.0	0.1564205728222888
307000000.0	0.15630079660799703
308000000.0	0.15618102039370527
309000000.0	0.1560612441794135
310000000.0	0.15594146796512173
311000000.0	0.15582169175082997
312000000.0	0.1557019155365382
313000000.0	0.15558213932224643
314000000.0	0.15546236310795467
315000000.0	0.1553425868936629
316000000.0	0.15522281067937113
317000000.0	0.15510303446507936
318000000.0	0.1549832582507876
319000000.0	0.15486348203649583
320000000.0	0.15474370582220406
321000000.0	0.1546239296079123
322000000.0	0.15452709970171838
323000000.0	0.15443957492471144
324000000.0	0.1543520501477045
325000000.0	0.15426452537069757
326000000.0	0.15417700059369063
327000000.0	0.1540894758166837
328000000.0	0.15400195103967676
329000000.0	0.15391442626266982
330000000.0	0.1538269014856629
331000000.0	0.15373937670865595
332000000.0	0.15365185193164901
333000000.0	0.15354666593529886
334000000.0	0.15343287949625875
335000000.0	0.15331909305721864
336000000.0	0.15320530661817852
337000000.0	0.1530915201791384
338000000.0	0.1529777337400983
339000000.0	0.15286394730105818
340000000.0	0.15275016086201806
341000000.0	0.15222236623649713
342000000.0	0.1498251292030507
343000000.0	0.14742789216960425
344000000.0	0.14503065513615782
345000000.0	0.1426334181027114
346000000.0	0.14023618106926497
347000000.0	0.13783894403581853
348000000.0	0.1354417070023721
349000000.0	0.13304446996892566
350000000.0	0.13138576726480256
351000000.0	0.13001790666460897
352000000.0	0.12865004606441535
353000000.0	0.12728218546422174
354000000.0	0.12591432486402815
355000000.0	0.12454646426383455
356000000.0	0.12317860366364095
357000000.0	0.12181074306344734
358000000.0	0.12075182715464203
359000000.0	0.12066430237763509
360000000.0	0.12057677760062815
361000000.0	0.12048925282362122
362000000.0	0.12040172804661428
363000000.0	0.12031420326960734
364000000.0	0.12022667849260041
365000000.0	0.12013915371559347
366000000.0	0.12005162893858654
367000000.0	0.1199641041615796
368000000.0	0.11987657938457266
369000000.0	0.11968109783935872
370000000.0	0.11905999893825983
371000000.0	0.11843890003716093
372000000.0	0.11781780113606202
373000000.0	0.11719670223496313
374000000.0	0.11657560333386423
375000000.0	0.11595450443276534
376000000.0	0.11533340553166643
377000000.0	0.11471230663056753
378000000.0	0.11409120772946864
379000000.0	0.1137899584006696
380000000.0	0.11353704986299284
381000000.0	0.11328414132531608
382000000.0	0.11303123278763932
383000000.0	0.11277832424996256
384000000.0	0.1125254157122858
385000000.0	0.11227250717460904
386000000.0	0.11214215340351277
387000000.0	0.11242645923852285
388000000.0	0.1127107650735329
389000000.0	0.11299507090854297
390000000.0	0.11327937674355304
391000000.0	0.1135636825785631
392000000.0	0.11384798841357317
393000000.0	0.11413229424858323
394000000.0	0.11441660008359329
395000000.0	0.11470090591860337
396000000.0	0.114975845410628
397000000.0	0.114975845410628
398000000.0	0.114975845410628
399000000.0	0.114975845410628
400000000.0	0.114975845410628
401000000.0	0.114975845410628
402000000.0	0.114975845410628
403000000.0	0.114975845410628
404000000.0	0.11473384509210599
405000000.0	0.11411274619100709
406000000.0	0.11349164728990817
407000000.0	0.11287054838880926
408000000.0	0.11224944948771035
409000000.0	0.11162835058661144
410000000.0	0.11100725168551252
411000000.0	0.11038615278441362
412000000.0	0.1097650538833147
413000000.0	0.10913773622687786
414000000.0	0.10840561187454625
415000000.0	0.10767348752221466
416000000.0	0.10694136316988305
417000000.0	0.10620923881755145
418000000.0	0.10547711446521985
419000000.0	0.10474499011288824
420000000.0	0.10401286576055664
421000000.0	0.10328074140822503
422000000.0	0.10254861705589342
423000000.0	0.10181649270356183
424000000.0	0.10108436835123022
425000000.0	0.10048309178743953
426000000.0	0.10048309178743953
427000000.0	0.10048309178743953
428000000.0	0.10048309178743953
429000000.0	0.10048309178743953
430000000.0	0.10048309178743953
431000000.0	0.10048309178743953
432000000.0	0.10048309178743953
433000000.0	0.10048309178743953
434000000.0	0.10048309178743953
435000000.0	0.10048309178743953
436000000.0	0.10048309178743953
437000000.0	0.10046481603223313
438000000.0	0.10040160586850404
439000000.0	0.10033839570477496
440000000.0	0.10027518554104586
441000000.0	0.10021197537731678
442000000.0	0.1001487652135877
443000000.0	0.10008555504985861
444000000.0	0.10002234488612953
445000000.0	0.09995913472240044
446000000.0	0.09989592455867136
447000000.0	0.09983271439494228
448000000.0	0.09976950423121318
449000000.0	0.0997062940674841
450000000.0	0.09964308390375501
451000000.0	0.09957987374002593
452000000.0	0.09951639010748844
453000000.0	0.09938251990379351
454000000.0	0.0992486497000986
455000000.0	0.09911477949640367
456000000.0	0.09898090929270875
457000000.0	0.09884703908901384
458000000.0	0.0987131688853189
459000000.0	0.09857929868162399
460000000.0	0.09844542847792906
461000000.0	0.09831155827423414
462000000.0	0.09817768807053923
463000000.0	0.0980438178668443
464000000.0	0.09790994766314938
465000000.0	0.09777607745945446
466000000.0	0.09764220725575953
467000000.0	0.09748488385386467
468000000.0	0.09730981261114381
469000000.0	0.09713474136842294
470000000.0	0.09695967012570209
471000000.0	0.09678459888298123
472000000.0	0.09660952764026036
473000000.0	0.0964344563975395
474000000.0	0.09625938515481865
475000000.0	0.09608431391209779
476000000.0	0.09590924266937692
477000000.0	0.09573417142665606
478000000.0	0.09545045584976936
479000000.0	0.09507102513011306
480000000.0	0.09469159441045678
481000000.0	0.0943121636908005
482000000.0	0.09393273297114421
483000000.0	0.09355330225148793
484000000.0	0.09317387153183165
485000000.0	0.09279444081217536
486000000.0	0.09241501009251908
487000000.0	0.0920355793728628
488000000.0	0.09165614865320651
489000000.0	0.09127671793355023
490000000.0	0.09089728721389394
491000000.0	0.09057856247117195
492000000.0	0.09027505049608871
493000000.0	0.08997153852100548
494000000.0	0.08966802654592224
495000000.0	0.08936451457083901
496000000.0	0.08906100259575576
497000000.0	0.08875749062067252
498000000.0	0.08845397864558929
499000000.0	0.08815046667050605
500000000.0	0.08784695469542281
501000000.0	0.08754344272033958
502000000.0	0.08723993074525634
503000000.0	0.08695113870841713
504000000.0	0.08686986642036928
505000000.0	0.08678859413232144
506000000.0	0.0867073218442736
507000000.0	0.08662604955622574
508000000.0	0.0865447772681779
509000000.0	0.08646350498013006
510000000.0	0.08638223269208221
511000000.0	0.08630096040403437
512000000.0	0.08621968811598653
513000000.0	0.08613841582793869
514000000.0	0.08605714353989084
515000000.0	0.08601058625144581
516000000.0	0.08612433605018996
517000000.0	0.08623808584893411
518000000.0	0.08635183564767827
519000000.0	0.08646558544642242
520000000.0	0.08657933524516657
521000000.0	0.08669308504391074
522000000.0	0.08680683484265489
523000000.0	0.08692058464139904
524000000.0	0.0870343344401432
525000000.0	0.08714808423888736
526000000.0	0.0872618340376315
527000000.0	0.08737558383637567
528000000.0	0.08748933363511982
529000000.0	0.08760308343386397
530000000.0	0.08771683323260814
531000000.0	0.08783058303135229
532000000.0	0.08790032469048152
533000000.0	0.08778261392740255
534000000.0	0.08766490316432357
535000000.0	0.0875471924012446
536000000.0	0.08742948163816563
537000000.0	0.08731177087508667
538000000.0	0.0871940601120077
539000000.0	0.08707634934892872
540000000.0	0.08695863858584975
541000000.0	0.08684092782277078
542000000.0	0.08672321705969181
543000000.0	0.08660550629661283
544000000.0	0.08648779553353386
545000000.0	0.0863700847704549
546000000.0	0.08625237400737593
547000000.0	0.08613466324429694
548000000.0	0.08601695248121798
549000000.0	0.08589924171813901
550000000.0	0.08578153095506004
551000000.0	0.08566382019198107
552000000.0	0.08554610942890209
553000000.0	0.08542839866582312
554000000.0	0.08531068790274415
555000000.0	0.08519297713966519
556000000.0	0.0850752663765862
557000000.0	0.08499027367284881
558000000.0	0.08493039064182661
559000000.0	0.0848705076108044
560000000.0	0.0848106245797822
561000000.0	0.08475074154875999
562000000.0	0.08469085851773779
563000000.0	0.08463097548671558
564000000.0	0.08457109245569337
565000000.0	0.08451120942467116
566000000.0	0.08445132639364895
567000000.0	0.08439144336262676
568000000.0	0.08433156033160455
569000000.0	0.08427167730058234
570000000.0	0.08421179426956013
571000000.0	0.08415191123853794
572000000.0	0.08409202820751573
573000000.0	0.08379951547397622
574000000.0	0.08320022800260461
575000000.0	0.082600940531233
576000000.0	0.08200165305986139
577000000.0	0.08140236558848976
578000000.0	0.08080307811711815
579000000.0	0.08020379064574654
580000000.0	0.07960450317437492
581000000.0	0.07900521570300331
582000000.0	0.0784059282316317
583000000.0	0.07780664076026007
584000000.0	0.07720735328888846
585000000.0	0.07660806581751685
586000000.0	0.07600877834614524
587000000.0	0.07540949087477361
588000000.0	0.074810203403402
589000000.0	0.07423974846357789
590000000.0	0.07373375025408818
591000000.0	0.07322775204459848
592000000.0	0.07272175383510877
593000000.0	0.07221575562561906
594000000.0	0.07170975741612935
595000000.0	0.07120375920663966
596000000.0	0.07069776099714994
597000000.0	0.07019176278766023
598000000.0	0.06968576457817052
599000000.0	0.06917976636868083
600000000.0	0.06867376815919111
601000000.0	0.0681677699497014
602000000.0	0.06766177174021169
603000000.0	0.067155773530722
604000000.0	0.06664977532123229
605000000.0	0.06614377711174257
606000000.0	0.06563777890225286
607000000.0	0.06513178069276317
608000000.0	0.06462578248327346
609000000.0	0.06411978427378374
610000000.0	0.06361378606429403
611000000.0	0.06310778785480434
612000000.0	0.06273763202767381
613000000.0	0.06257506875109765
614000000.0	0.06241250547452149
615000000.0	0.062249942197945336
616000000.0	0.062087378921369174
617000000.0	0.06192481564479301
618000000.0	0.061762252368216856
619000000.0	0.061599689091640694
620000000.0	0.06143712581506454
621000000.0	0.06127456253848838
622000000.0	0.061111999261912214
623000000.0	0.06094943598533606
624000000.0	0.0607868727087599
625000000.0	0.060624309432183734
626000000.0	0.06046174615560758
627000000.0	0.06029918287903142
628000000.0	0.06013661960245526
629000000.0	0.0599740563258791
630000000.0	0.05981149304930294
631000000.0	0.05964892977272678
632000000.0	0.05948636649615062
633000000.0	0.059323803219574464
